##TITLE= Gd02_with_copper
##JCAMP-DX= 4.24
##DATA TYPE= UV/VIS SPECTRUM
##ORIGIN= 
##OWNER= U-3300 user
##DATE= 11:58:21, 12/26/2022
##SAMPLE DESCRIPTION= 
##SPECTROMETER/DATA SYSTEM= Hitachi Model U-3300形分光光度計;
ｼﾘｱﾙ No.: 1146-001;
ROM Ver.: 2520 10;
##INSTRUMENT PARAMETERS= ｽｷｬﾝｽﾋﾟｰﾄﾞ= 120 nm/min;
ｽﾘｯﾄ= 4 nm;
ﾎﾄﾏﾙ電圧= 自動制御;
光源切換= 340.00 nm;
ﾍﾞｰｽﾗｲﾝ設定= ﾕｰｻﾞ 1;
高分解能測定= Off;
##DELTAX= -1.00
##PATH_LENGTH= 10.0mm
##XLABEL= nm
##YLABEL= %T
##XUNITS= NANOMETERS
##YUNITS= % TRANSMITTANCE
##XFACTOR= 1.0
##YFACTOR= 1.0
##FIRSTX= 600.00
##LASTX= 200.00
##NPOINTS= 401
##XYDATA= (X++(Y..Y))
600.00 87.1
599.00 87.1
598.00 87.1
597.00 87.1
596.00 87.1
595.00 87.0
594.00 87.0
593.00 87.0
592.00 86.9
591.00 86.9
590.00 86.9
589.00 86.9
588.00 86.8
587.00 86.8
586.00 86.8
585.00 86.8
584.00 86.7
583.00 86.7
582.00 86.7
581.00 86.6
580.00 86.6
579.00 86.6
578.00 86.6
577.00 86.5
576.00 86.5
575.00 86.5
574.00 86.5
573.00 86.4
572.00 86.4
571.00 86.4
570.00 86.3
569.00 86.3
568.00 86.3
567.00 86.3
566.00 86.2
565.00 86.2
564.00 86.2
563.00 86.1
562.00 86.1
561.00 86.1
560.00 86.0
559.00 86.0
558.00 86.0
557.00 85.9
556.00 85.9
555.00 85.9
554.00 85.9
553.00 85.8
552.00 85.8
551.00 85.8
550.00 85.8
549.00 85.7
548.00 85.7
547.00 85.7
546.00 85.6
545.00 85.6
544.00 85.6
543.00 85.5
542.00 85.5
541.00 85.5
540.00 85.4
539.00 85.4
538.00 85.4
537.00 85.3
536.00 85.3
535.00 85.3
534.00 85.2
533.00 85.2
532.00 85.2
531.00 85.1
530.00 85.1
529.00 85.1
528.00 85.0
527.00 85.0
526.00 85.0
525.00 84.9
524.00 84.9
523.00 84.9
522.00 84.8
521.00 84.8
520.00 84.8
519.00 84.7
518.00 84.7
517.00 84.7
516.00 84.6
515.00 84.6
514.00 84.6
513.00 84.5
512.00 84.5
511.00 84.5
510.00 84.5
509.00 84.4
508.00 84.4
507.00 84.4
506.00 84.3
505.00 84.3
504.00 84.3
503.00 84.3
502.00 84.2
501.00 84.2
500.00 84.2
499.00 84.1
498.00 84.1
497.00 84.0
496.00 84.0
495.00 83.9
494.00 83.9
493.00 83.9
492.00 83.8
491.00 83.8
490.00 83.8
489.00 83.7
488.00 83.7
487.00 83.7
486.00 83.7
485.00 83.6
484.00 83.6
483.00 83.6
482.00 83.5
481.00 83.5
480.00 83.4
479.00 83.4
478.00 83.4
477.00 83.3
476.00 83.3
475.00 83.2
474.00 83.2
473.00 83.1
472.00 83.1
471.00 83.1
470.00 83.1
469.00 83.0
468.00 83.0
467.00 83.0
466.00 82.9
465.00 82.9
464.00 82.8
463.00 82.8
462.00 82.8
461.00 82.7
460.00 82.7
459.00 82.7
458.00 82.6
457.00 82.6
456.00 82.6
455.00 82.5
454.00 82.5
453.00 82.5
452.00 82.4
451.00 82.4
450.00 82.3
449.00 82.3
448.00 82.3
447.00 82.2
446.00 82.2
445.00 82.1
444.00 82.1
443.00 82.0
442.00 82.0
441.00 82.0
440.00 81.9
439.00 81.9
438.00 81.9
437.00 81.8
436.00 81.8
435.00 81.7
434.00 81.7
433.00 81.7
432.00 81.6
431.00 81.6
430.00 81.5
429.00 81.5
428.00 81.5
427.00 81.4
426.00 81.4
425.00 81.3
424.00 81.3
423.00 81.3
422.00 81.2
421.00 81.2
420.00 81.1
419.00 81.1
418.00 81.1
417.00 81.0
416.00 81.0
415.00 81.0
414.00 80.9
413.00 80.9
412.00 80.9
411.00 80.8
410.00 80.8
409.00 80.8
408.00 80.7
407.00 80.7
406.00 80.6
405.00 80.6
404.00 80.5
403.00 80.5
402.00 80.5
401.00 80.4
400.00 80.4
399.00 80.4
398.00 80.3
397.00 80.3
396.00 80.2
395.00 80.2
394.00 80.2
393.00 80.1
392.00 80.1
391.00 80.1
390.00 80.0
389.00 79.9
388.00 79.9
387.00 79.8
386.00 79.7
385.00 79.7
384.00 79.7
383.00 79.7
382.00 79.7
381.00 79.6
380.00 79.6
379.00 79.6
378.00 79.6
377.00 79.5
376.00 79.5
375.00 79.4
374.00 79.4
373.00 79.4
372.00 79.3
371.00 79.3
370.00 79.2
369.00 79.2
368.00 79.1
367.00 79.1
366.00 79.1
365.00 79.1
364.00 79.0
363.00 79.0
362.00 78.9
361.00 78.9
360.00 78.8
359.00 78.8
358.00 78.8
357.00 78.7
356.00 78.7
355.00 78.6
354.00 78.6
353.00 78.5
352.00 78.5
351.00 78.4
350.00 78.4
349.00 78.3
348.00 78.3
347.00 78.3
346.00 78.2
345.00 78.2
344.00 78.2
343.00 78.1
342.00 78.1
341.00 78.1
340.00 78.1
339.00 78.0
338.00 78.0
337.00 78.0
336.00 77.9
335.00 77.9
334.00 77.8
333.00 77.8
332.00 77.8
331.00 77.7
330.00 77.7
329.00 77.6
328.00 77.6
327.00 77.5
326.00 77.5
325.00 77.4
324.00 77.4
323.00 77.3
322.00 77.3
321.00 77.3
320.00 77.2
319.00 77.2
318.00 77.1
317.00 77.1
316.00 77.1
315.00 77.0
314.00 77.0
313.00 76.9
312.00 76.8
311.00 76.8
310.00 76.8
309.00 76.7
308.00 76.7
307.00 76.7
306.00 76.6
305.00 76.6
304.00 76.6
303.00 76.5
302.00 76.5
301.00 76.5
300.00 76.4
299.00 76.4
298.00 76.4
297.00 76.3
296.00 76.3
295.00 76.3
294.00 76.2
293.00 76.2
292.00 76.2
291.00 76.1
290.00 76.1
289.00 76.1
288.00 76.0
287.00 76.0
286.00 76.0
285.00 75.9
284.00 75.9
283.00 75.9
282.00 75.8
281.00 75.8
280.00 75.7
279.00 75.5
278.00 75.1
277.00 74.7
276.00 74.1
275.00 73.7
274.00 73.5
273.00 73.5
272.00 73.8
271.00 74.2
270.00 74.6
269.00 74.9
268.00 75.0
267.00 75.0
266.00 74.9
265.00 74.8
264.00 74.7
263.00 74.6
262.00 74.6
261.00 74.5
260.00 74.5
259.00 74.4
258.00 74.4
257.00 74.3
256.00 74.3
255.00 74.2
254.00 74.1
253.00 74.1
252.00 74.0
251.00 74.0
250.00 73.9
249.00 73.8
248.00 73.7
247.00 73.6
246.00 73.4
245.00 73.3
244.00 73.1
243.00 73.0
242.00 72.8
241.00 72.6
240.00 72.3
239.00 72.0
238.00 71.6
237.00 71.2
236.00 70.7
235.00 70.1
234.00 69.5
233.00 68.8
232.00 68.0
231.00 67.2
230.00 66.2
229.00 65.2
228.00 64.0
227.00 62.8
226.00 61.5
225.00 60.2
224.00 58.8
223.00 57.4
222.00 55.9
221.00 54.4
220.00 52.9
219.00 51.3
218.00 49.8
217.00 48.3
216.00 46.8
215.00 45.4
214.00 44.1
213.00 42.9
212.00 41.8
211.00 40.7
210.00 39.8
209.00 38.9
208.00 38.1
207.00 37.3
206.00 36.6
205.00 36.0
204.00 35.2
203.00 34.5
202.00 33.8
201.00 33.2
200.00 32.7
##END=
