##TITLE= Gd02
##JCAMP-DX= 4.24
##DATA TYPE= UV/VIS SPECTRUM
##ORIGIN= 
##OWNER= U-3300 user
##DATE= 11:47:33, 12/26/2022
##SAMPLE DESCRIPTION= 
##SPECTROMETER/DATA SYSTEM= Hitachi Model U-3300形分光光度計;
ｼﾘｱﾙ No.: 1146-001;
ROM Ver.: 2520 10;
##INSTRUMENT PARAMETERS= ｽｷｬﾝｽﾋﾟｰﾄﾞ= 120 nm/min;
ｽﾘｯﾄ= 4 nm;
ﾎﾄﾏﾙ電圧= 自動制御;
光源切換= 340.00 nm;
ﾍﾞｰｽﾗｲﾝ設定= ﾕｰｻﾞ 1;
高分解能測定= Off;
##DELTAX= -1.00
##PATH_LENGTH= 10.0mm
##XLABEL= nm
##YLABEL= %T
##XUNITS= NANOMETERS
##YUNITS= % TRANSMITTANCE
##XFACTOR= 1.0
##YFACTOR= 1.0
##FIRSTX= 600.00
##LASTX= 200.00
##NPOINTS= 401
##XYDATA= (X++(Y..Y))
600.00 100.2
599.00 100.2
598.00 100.2
597.00 100.2
596.00 100.2
595.00 100.2
594.00 100.2
593.00 100.2
592.00 100.2
591.00 100.2
590.00 100.2
589.00 100.1
588.00 100.2
587.00 100.2
586.00 100.2
585.00 100.2
584.00 100.2
583.00 100.2
582.00 100.2
581.00 100.2
580.00 100.2
579.00 100.2
578.00 100.2
577.00 100.2
576.00 100.2
575.00 100.2
574.00 100.2
573.00 100.2
572.00 100.2
571.00 100.2
570.00 100.2
569.00 100.2
568.00 100.3
567.00 100.3
566.00 100.3
565.00 100.3
564.00 100.3
563.00 100.3
562.00 100.3
561.00 100.3
560.00 100.3
559.00 100.3
558.00 100.3
557.00 100.3
556.00 100.3
555.00 100.3
554.00 100.3
553.00 100.3
552.00 100.3
551.00 100.3
550.00 100.3
549.00 100.3
548.00 100.3
547.00 100.3
546.00 100.3
545.00 100.3
544.00 100.3
543.00 100.3
542.00 100.3
541.00 100.3
540.00 100.3
539.00 100.3
538.00 100.3
537.00 100.3
536.00 100.3
535.00 100.3
534.00 100.3
533.00 100.3
532.00 100.3
531.00 100.3
530.00 100.3
529.00 100.3
528.00 100.3
527.00 100.3
526.00 100.3
525.00 100.3
524.00 100.3
523.00 100.3
522.00 100.3
521.00 100.3
520.00 100.3
519.00 100.3
518.00 100.3
517.00 100.3
516.00 100.3
515.00 100.3
514.00 100.3
513.00 100.3
512.00 100.3
511.00 100.3
510.00 100.3
509.00 100.3
508.00 100.3
507.00 100.3
506.00 100.3
505.00 100.3
504.00 100.3
503.00 100.4
502.00 100.4
501.00 100.4
500.00 100.4
499.00 100.3
498.00 100.3
497.00 100.3
496.00 100.3
495.00 100.3
494.00 100.3
493.00 100.3
492.00 100.3
491.00 100.3
490.00 100.3
489.00 100.3
488.00 100.3
487.00 100.3
486.00 100.3
485.00 100.3
484.00 100.3
483.00 100.3
482.00 100.3
481.00 100.3
480.00 100.3
479.00 100.3
478.00 100.3
477.00 100.3
476.00 100.3
475.00 100.3
474.00 100.3
473.00 100.3
472.00 100.2
471.00 100.2
470.00 100.2
469.00 100.3
468.00 100.3
467.00 100.3
466.00 100.3
465.00 100.3
464.00 100.3
463.00 100.3
462.00 100.3
461.00 100.3
460.00 100.3
459.00 100.3
458.00 100.3
457.00 100.3
456.00 100.3
455.00 100.3
454.00 100.3
453.00 100.3
452.00 100.3
451.00 100.3
450.00 100.3
449.00 100.2
448.00 100.2
447.00 100.2
446.00 100.2
445.00 100.2
444.00 100.2
443.00 100.2
442.00 100.2
441.00 100.2
440.00 100.2
439.00 100.2
438.00 100.2
437.00 100.2
436.00 100.2
435.00 100.2
434.00 100.2
433.00 100.1
432.00 100.1
431.00 100.2
430.00 100.2
429.00 100.2
428.00 100.2
427.00 100.2
426.00 100.2
425.00 100.2
424.00 100.2
423.00 100.1
422.00 100.2
421.00 100.2
420.00 100.1
419.00 100.1
418.00 100.1
417.00 100.1
416.00 100.1
415.00 100.1
414.00 100.1
413.00 100.1
412.00 100.1
411.00 100.1
410.00 100.1
409.00 100.1
408.00 100.1
407.00 100.1
406.00 100.1
405.00 100.1
404.00 100.1
403.00 100.1
402.00 100.1
401.00 100.1
400.00 100.1
399.00 100.1
398.00 100.1
397.00 100.1
396.00 100.1
395.00 100.1
394.00 100.1
393.00 100.1
392.00 100.1
391.00 100.1
390.00 100.1
389.00 100.1
388.00 100.1
387.00 100.1
386.00 100.1
385.00 100.2
384.00 100.2
383.00 100.2
382.00 100.2
381.00 100.2
380.00 100.2
379.00 100.2
378.00 100.2
377.00 100.2
376.00 100.2
375.00 100.2
374.00 100.3
373.00 100.3
372.00 100.2
371.00 100.2
370.00 100.2
369.00 100.2
368.00 100.2
367.00 100.2
366.00 100.3
365.00 100.3
364.00 100.3
363.00 100.3
362.00 100.3
361.00 100.3
360.00 100.3
359.00 100.2
358.00 100.2
357.00 100.2
356.00 100.2
355.00 100.2
354.00 100.2
353.00 100.2
352.00 100.2
351.00 100.2
350.00 100.2
349.00 100.2
348.00 100.2
347.00 100.2
346.00 100.2
345.00 100.3
344.00 100.3
343.00 100.3
342.00 100.3
341.00 100.2
340.00 100.2
339.00 100.2
338.00 100.1
337.00 100.1
336.00 100.1
335.00 100.1
334.00 100.1
333.00 100.1
332.00 100.1
331.00 100.1
330.00 100.1
329.00 100.1
328.00 100.0
327.00 100.0
326.00 100.0
325.00 100.0
324.00 100.0
323.00 100.0
322.00 100.0
321.00 100.0
320.00 100.0
319.00 100.0
318.00 100.0
317.00 100.0
316.00 100.0
315.00 100.0
314.00 99.9
313.00 99.9
312.00 99.9
311.00 99.8
310.00 99.8
309.00 99.9
308.00 99.9
307.00 99.9
306.00 99.9
305.00 99.9
304.00 99.9
303.00 99.9
302.00 99.9
301.00 99.9
300.00 100.0
299.00 100.0
298.00 100.0
297.00 100.0
296.00 100.0
295.00 100.0
294.00 100.0
293.00 100.0
292.00 100.0
291.00 100.0
290.00 100.0
289.00 100.0
288.00 100.0
287.00 100.0
286.00 100.0
285.00 100.0
284.00 100.0
283.00 100.0
282.00 100.0
281.00 100.0
280.00 99.9
279.00 99.7
278.00 99.3
277.00 98.7
276.00 98.1
275.00 97.6
274.00 97.4
273.00 97.5
272.00 98.0
271.00 98.6
270.00 99.2
269.00 99.8
268.00 100.0
267.00 100.1
266.00 100.1
265.00 100.0
264.00 100.0
263.00 100.0
262.00 100.0
261.00 100.0
260.00 100.0
259.00 100.1
258.00 100.1
257.00 100.1
256.00 100.1
255.00 100.1
254.00 100.1
253.00 100.1
252.00 100.1
251.00 100.1
250.00 100.2
249.00 100.2
248.00 100.2
247.00 100.2
246.00 100.1
245.00 100.1
244.00 100.1
243.00 100.1
242.00 100.2
241.00 100.2
240.00 100.2
239.00 100.2
238.00 100.2
237.00 100.2
236.00 100.1
235.00 100.1
234.00 100.1
233.00 100.1
232.00 100.1
231.00 100.1
230.00 100.1
229.00 100.1
228.00 100.1
227.00 100.1
226.00 100.1
225.00 100.1
224.00 100.1
223.00 100.1
222.00 100.1
221.00 100.1
220.00 100.0
219.00 100.0
218.00 100.0
217.00 100.0
216.00 100.0
215.00 99.9
214.00 99.9
213.00 99.9
212.00 99.8
211.00 99.8
210.00 99.7
209.00 99.7
208.00 99.6
207.00 99.5
206.00 99.3
205.00 98.9
204.00 98.2
203.00 97.3
202.00 96.2
201.00 95.2
200.00 94.4
##END=
