##TITLE= copper_soak_0.5_dilu
##JCAMP-DX= 4.24
##DATA TYPE= UV/VIS SPECTRUM
##ORIGIN= 
##OWNER= U-3300 user
##DATE= 17:10:05, 02/10/2023
##SAMPLE DESCRIPTION= copper_soak_0.5_diluted_Gd02
##SPECTROMETER/DATA SYSTEM= Hitachi Model U-3300形分光光度計;
ｼﾘｱﾙ No.: 1146-001;
ROM Ver.: 2520 10;
##INSTRUMENT PARAMETERS= ｽｷｬﾝｽﾋﾟｰﾄﾞ= 120 nm/min;
ｽﾘｯﾄ= 4 nm;
ﾎﾄﾏﾙ電圧= 自動制御;
光源切換= 340.00 nm;
ﾍﾞｰｽﾗｲﾝ設定= ﾕｰｻﾞ 1;
高分解能測定= Off;
##DELTAX= -1.00
##PATH_LENGTH= 10.0mm
##XLABEL= nm
##YLABEL= %T
##XUNITS= NANOMETERS
##YUNITS= % TRANSMITTANCE
##XFACTOR= 1.0
##YFACTOR= 1.0
##FIRSTX= 600.00
##LASTX= 200.00
##NPOINTS= 401
##XYDATA= (X++(Y..Y))
600.00 80.7
599.00 80.7
598.00 80.7
597.00 80.6
596.00 80.6
595.00 80.6
594.00 80.5
593.00 80.5
592.00 80.5
591.00 80.4
590.00 80.4
589.00 80.3
588.00 80.3
587.00 80.3
586.00 80.2
585.00 80.2
584.00 80.2
583.00 80.1
582.00 80.1
581.00 80.1
580.00 80.0
579.00 80.0
578.00 80.0
577.00 80.0
576.00 79.9
575.00 79.9
574.00 79.9
573.00 79.8
572.00 79.8
571.00 79.8
570.00 79.7
569.00 79.7
568.00 79.7
567.00 79.6
566.00 79.6
565.00 79.6
564.00 79.5
563.00 79.5
562.00 79.4
561.00 79.4
560.00 79.3
559.00 79.3
558.00 79.2
557.00 79.2
556.00 79.1
555.00 79.1
554.00 79.0
553.00 79.0
552.00 79.0
551.00 78.9
550.00 78.9
549.00 78.9
548.00 78.8
547.00 78.8
546.00 78.8
545.00 78.7
544.00 78.7
543.00 78.7
542.00 78.7
541.00 78.6
540.00 78.6
539.00 78.6
538.00 78.5
537.00 78.5
536.00 78.5
535.00 78.4
534.00 78.4
533.00 78.4
532.00 78.3
531.00 78.3
530.00 78.2
529.00 78.2
528.00 78.2
527.00 78.1
526.00 78.1
525.00 78.0
524.00 78.0
523.00 77.9
522.00 77.9
521.00 77.8
520.00 77.8
519.00 77.7
518.00 77.7
517.00 77.7
516.00 77.6
515.00 77.6
514.00 77.6
513.00 77.5
512.00 77.5
511.00 77.5
510.00 77.4
509.00 77.4
508.00 77.3
507.00 77.3
506.00 77.2
505.00 77.2
504.00 77.1
503.00 77.1
502.00 77.0
501.00 77.0
500.00 77.0
499.00 76.9
498.00 76.9
497.00 76.8
496.00 76.8
495.00 76.7
494.00 76.7
493.00 76.7
492.00 76.6
491.00 76.6
490.00 76.5
489.00 76.5
488.00 76.4
487.00 76.4
486.00 76.3
485.00 76.3
484.00 76.3
483.00 76.2
482.00 76.2
481.00 76.1
480.00 76.1
479.00 76.0
478.00 76.0
477.00 75.9
476.00 75.9
475.00 75.8
474.00 75.8
473.00 75.7
472.00 75.7
471.00 75.6
470.00 75.6
469.00 75.5
468.00 75.5
467.00 75.4
466.00 75.4
465.00 75.4
464.00 75.3
463.00 75.3
462.00 75.2
461.00 75.2
460.00 75.2
459.00 75.1
458.00 75.1
457.00 75.0
456.00 75.0
455.00 74.9
454.00 74.9
453.00 74.8
452.00 74.8
451.00 74.7
450.00 74.7
449.00 74.6
448.00 74.5
447.00 74.5
446.00 74.4
445.00 74.4
444.00 74.3
443.00 74.3
442.00 74.3
441.00 74.2
440.00 74.2
439.00 74.1
438.00 74.1
437.00 74.0
436.00 74.0
435.00 73.9
434.00 73.8
433.00 73.8
432.00 73.8
431.00 73.7
430.00 73.7
429.00 73.6
428.00 73.6
427.00 73.5
426.00 73.5
425.00 73.4
424.00 73.3
423.00 73.3
422.00 73.3
421.00 73.2
420.00 73.2
419.00 73.1
418.00 73.1
417.00 73.0
416.00 73.0
415.00 72.9
414.00 72.9
413.00 72.8
412.00 72.8
411.00 72.7
410.00 72.7
409.00 72.7
408.00 72.6
407.00 72.6
406.00 72.5
405.00 72.5
404.00 72.4
403.00 72.4
402.00 72.3
401.00 72.3
400.00 72.2
399.00 72.2
398.00 72.1
397.00 72.1
396.00 72.0
395.00 72.0
394.00 71.9
393.00 71.8
392.00 71.8
391.00 71.7
390.00 71.7
389.00 71.6
388.00 71.6
387.00 71.6
386.00 71.5
385.00 71.4
384.00 71.4
383.00 71.4
382.00 71.3
381.00 71.3
380.00 71.2
379.00 71.2
378.00 71.1
377.00 71.1
376.00 71.0
375.00 71.0
374.00 70.9
373.00 70.9
372.00 70.8
371.00 70.8
370.00 70.7
369.00 70.7
368.00 70.6
367.00 70.5
366.00 70.5
365.00 70.4
364.00 70.4
363.00 70.3
362.00 70.3
361.00 70.2
360.00 70.2
359.00 70.1
358.00 70.1
357.00 70.0
356.00 70.0
355.00 69.9
354.00 69.9
353.00 69.8
352.00 69.8
351.00 69.7
350.00 69.6
349.00 69.6
348.00 69.5
347.00 69.4
346.00 69.3
345.00 69.3
344.00 69.2
343.00 69.2
342.00 69.2
341.00 69.1
340.00 69.0
339.00 68.9
338.00 68.8
337.00 68.7
336.00 68.7
335.00 68.6
334.00 68.6
333.00 68.5
332.00 68.5
331.00 68.4
330.00 68.4
329.00 68.3
328.00 68.3
327.00 68.2
326.00 68.1
325.00 68.1
324.00 68.0
323.00 68.0
322.00 67.9
321.00 67.9
320.00 67.8
319.00 67.8
318.00 67.7
317.00 67.7
316.00 67.6
315.00 67.6
314.00 67.5
313.00 67.5
312.00 67.4
311.00 67.4
310.00 67.3
309.00 67.3
308.00 67.2
307.00 67.2
306.00 67.1
305.00 67.1
304.00 67.0
303.00 67.0
302.00 66.9
301.00 66.9
300.00 66.9
299.00 66.8
298.00 66.8
297.00 66.7
296.00 66.7
295.00 66.6
294.00 66.6
293.00 66.6
292.00 66.5
291.00 66.5
290.00 66.4
289.00 66.4
288.00 66.3
287.00 66.3
286.00 66.3
285.00 66.2
284.00 66.2
283.00 66.1
282.00 66.1
281.00 66.1
280.00 66.0
279.00 65.9
278.00 65.7
277.00 65.5
276.00 65.2
275.00 64.9
274.00 64.8
273.00 64.8
272.00 64.9
271.00 65.1
270.00 65.2
269.00 65.3
268.00 65.4
267.00 65.3
266.00 65.3
265.00 65.2
264.00 65.1
263.00 65.0
262.00 65.0
261.00 65.0
260.00 64.9
259.00 64.9
258.00 64.8
257.00 64.8
256.00 64.7
255.00 64.7
254.00 64.6
253.00 64.6
252.00 64.6
251.00 64.6
250.00 64.5
249.00 64.5
248.00 64.4
247.00 64.4
246.00 64.3
245.00 64.2
244.00 64.2
243.00 64.1
242.00 63.9
241.00 63.8
240.00 63.6
239.00 63.5
238.00 63.2
237.00 62.9
236.00 62.6
235.00 62.3
234.00 61.8
233.00 61.4
232.00 60.9
231.00 60.3
230.00 59.6
229.00 58.9
228.00 58.1
227.00 57.2
226.00 56.2
225.00 55.3
224.00 54.3
223.00 53.2
222.00 52.2
221.00 51.1
220.00 49.9
219.00 48.8
218.00 47.6
217.00 46.5
216.00 45.4
215.00 44.3
214.00 43.4
213.00 42.5
212.00 41.6
211.00 40.8
210.00 40.1
209.00 39.4
208.00 38.7
207.00 38.1
206.00 37.6
205.00 37.1
204.00 36.6
203.00 36.0
202.00 35.5
201.00 35.1
200.00 34.7
##END=
