##TITLE= pure_water
##JCAMP-DX= 4.24
##DATA TYPE= UV/VIS SPECTRUM
##ORIGIN= 
##OWNER= U-3300 user
##DATE= 16:31:25, 02/10/2023
##SAMPLE DESCRIPTION= 
##SPECTROMETER/DATA SYSTEM= Hitachi Model U-3300形分光光度計;
ｼﾘｱﾙ No.: 1146-001;
ROM Ver.: 2520 10;
##INSTRUMENT PARAMETERS= ｽｷｬﾝｽﾋﾟｰﾄﾞ= 120 nm/min;
ｽﾘｯﾄ= 4 nm;
ﾎﾄﾏﾙ電圧= 自動制御;
光源切換= 340.00 nm;
ﾍﾞｰｽﾗｲﾝ設定= ﾕｰｻﾞ 1;
高分解能測定= Off;
##DELTAX= -1.00
##PATH_LENGTH= 10.0mm
##XLABEL= nm
##YLABEL= %T
##XUNITS= NANOMETERS
##YUNITS= % TRANSMITTANCE
##XFACTOR= 1.0
##YFACTOR= 1.0
##FIRSTX= 600.00
##LASTX= 200.00
##NPOINTS= 401
##XYDATA= (X++(Y..Y))
600.00 100.1
599.00 100.1
598.00 100.1
597.00 100.1
596.00 100.1
595.00 100.1
594.00 100.1
593.00 100.1
592.00 100.1
591.00 100.1
590.00 100.1
589.00 100.1
588.00 100.1
587.00 100.1
586.00 100.1
585.00 100.1
584.00 100.1
583.00 100.1
582.00 100.1
581.00 100.1
580.00 100.1
579.00 100.1
578.00 100.1
577.00 100.1
576.00 100.1
575.00 100.1
574.00 100.1
573.00 100.1
572.00 100.1
571.00 100.1
570.00 100.1
569.00 100.1
568.00 100.1
567.00 100.1
566.00 100.1
565.00 100.1
564.00 100.1
563.00 100.1
562.00 100.1
561.00 100.1
560.00 100.1
559.00 100.1
558.00 100.1
557.00 100.1
556.00 100.1
555.00 100.1
554.00 100.1
553.00 100.1
552.00 100.1
551.00 100.1
550.00 100.1
549.00 100.1
548.00 100.1
547.00 100.1
546.00 100.1
545.00 100.0
544.00 100.0
543.00 100.1
542.00 100.1
541.00 100.1
540.00 100.1
539.00 100.1
538.00 100.1
537.00 100.1
536.00 100.1
535.00 100.2
534.00 100.2
533.00 100.2
532.00 100.2
531.00 100.2
530.00 100.2
529.00 100.2
528.00 100.2
527.00 100.2
526.00 100.2
525.00 100.2
524.00 100.2
523.00 100.2
522.00 100.2
521.00 100.1
520.00 100.1
519.00 100.1
518.00 100.2
517.00 100.2
516.00 100.2
515.00 100.2
514.00 100.2
513.00 100.2
512.00 100.2
511.00 100.2
510.00 100.2
509.00 100.2
508.00 100.2
507.00 100.2
506.00 100.2
505.00 100.2
504.00 100.2
503.00 100.2
502.00 100.2
501.00 100.2
500.00 100.1
499.00 100.1
498.00 100.1
497.00 100.1
496.00 100.1
495.00 100.1
494.00 100.2
493.00 100.2
492.00 100.2
491.00 100.2
490.00 100.2
489.00 100.2
488.00 100.2
487.00 100.2
486.00 100.2
485.00 100.2
484.00 100.2
483.00 100.2
482.00 100.2
481.00 100.2
480.00 100.2
479.00 100.2
478.00 100.2
477.00 100.2
476.00 100.2
475.00 100.2
474.00 100.2
473.00 100.2
472.00 100.2
471.00 100.2
470.00 100.2
469.00 100.2
468.00 100.2
467.00 100.2
466.00 100.2
465.00 100.2
464.00 100.2
463.00 100.2
462.00 100.2
461.00 100.2
460.00 100.2
459.00 100.2
458.00 100.2
457.00 100.2
456.00 100.1
455.00 100.1
454.00 100.1
453.00 100.1
452.00 100.1
451.00 100.1
450.00 100.1
449.00 100.1
448.00 100.1
447.00 100.1
446.00 100.1
445.00 100.1
444.00 100.1
443.00 100.1
442.00 100.1
441.00 100.1
440.00 100.1
439.00 100.1
438.00 100.1
437.00 100.1
436.00 100.1
435.00 100.1
434.00 100.1
433.00 100.1
432.00 100.1
431.00 100.1
430.00 100.1
429.00 100.1
428.00 100.1
427.00 100.1
426.00 100.1
425.00 100.1
424.00 100.1
423.00 100.1
422.00 100.1
421.00 100.1
420.00 100.1
419.00 100.1
418.00 100.1
417.00 100.1
416.00 100.1
415.00 100.1
414.00 100.1
413.00 100.1
412.00 100.1
411.00 100.1
410.00 100.1
409.00 100.1
408.00 100.1
407.00 100.1
406.00 100.1
405.00 100.1
404.00 100.1
403.00 100.1
402.00 100.1
401.00 100.1
400.00 100.1
399.00 100.1
398.00 100.1
397.00 100.1
396.00 100.1
395.00 100.1
394.00 100.1
393.00 100.1
392.00 100.1
391.00 100.1
390.00 100.1
389.00 100.1
388.00 100.1
387.00 100.1
386.00 100.1
385.00 100.1
384.00 100.1
383.00 100.1
382.00 100.2
381.00 100.2
380.00 100.2
379.00 100.2
378.00 100.2
377.00 100.2
376.00 100.2
375.00 100.2
374.00 100.2
373.00 100.2
372.00 100.2
371.00 100.2
370.00 100.2
369.00 100.2
368.00 100.2
367.00 100.2
366.00 100.2
365.00 100.2
364.00 100.2
363.00 100.2
362.00 100.2
361.00 100.2
360.00 100.2
359.00 100.2
358.00 100.2
357.00 100.2
356.00 100.2
355.00 100.2
354.00 100.2
353.00 100.2
352.00 100.2
351.00 100.2
350.00 100.2
349.00 100.2
348.00 100.1
347.00 100.1
346.00 100.1
345.00 100.1
344.00 100.1
343.00 100.1
342.00 100.1
341.00 100.2
340.00 100.2
339.00 100.2
338.00 100.2
337.00 100.2
336.00 100.1
335.00 100.1
334.00 100.1
333.00 100.1
332.00 100.1
331.00 100.2
330.00 100.2
329.00 100.2
328.00 100.2
327.00 100.2
326.00 100.2
325.00 100.2
324.00 100.2
323.00 100.2
322.00 100.2
321.00 100.2
320.00 100.2
319.00 100.2
318.00 100.2
317.00 100.2
316.00 100.2
315.00 100.2
314.00 100.2
313.00 100.2
312.00 100.2
311.00 100.2
310.00 100.2
309.00 100.2
308.00 100.2
307.00 100.2
306.00 100.2
305.00 100.2
304.00 100.2
303.00 100.2
302.00 100.2
301.00 100.2
300.00 100.2
299.00 100.2
298.00 100.2
297.00 100.2
296.00 100.2
295.00 100.1
294.00 100.1
293.00 100.1
292.00 100.1
291.00 100.1
290.00 100.1
289.00 100.1
288.00 100.1
287.00 100.1
286.00 100.1
285.00 100.1
284.00 100.1
283.00 100.1
282.00 100.2
281.00 100.1
280.00 100.2
279.00 100.2
278.00 100.2
277.00 100.2
276.00 100.2
275.00 100.2
274.00 100.2
273.00 100.1
272.00 100.1
271.00 100.1
270.00 100.1
269.00 100.1
268.00 100.1
267.00 100.1
266.00 100.1
265.00 100.1
264.00 100.1
263.00 100.1
262.00 100.1
261.00 100.1
260.00 100.1
259.00 100.1
258.00 100.1
257.00 100.1
256.00 100.1
255.00 100.1
254.00 100.1
253.00 100.1
252.00 100.1
251.00 100.2
250.00 100.2
249.00 100.2
248.00 100.2
247.00 100.2
246.00 100.2
245.00 100.2
244.00 100.2
243.00 100.2
242.00 100.2
241.00 100.2
240.00 100.2
239.00 100.2
238.00 100.2
237.00 100.2
236.00 100.1
235.00 100.1
234.00 100.2
233.00 100.2
232.00 100.2
231.00 100.2
230.00 100.2
229.00 100.2
228.00 100.2
227.00 100.2
226.00 100.2
225.00 100.2
224.00 100.2
223.00 100.2
222.00 100.2
221.00 100.2
220.00 100.2
219.00 100.2
218.00 100.1
217.00 100.1
216.00 100.1
215.00 100.1
214.00 100.1
213.00 100.2
212.00 100.2
211.00 100.2
210.00 100.2
209.00 100.2
208.00 100.2
207.00 100.3
206.00 100.3
205.00 100.3
204.00 100.3
203.00 100.3
202.00 100.3
201.00 100.4
200.00 100.4
##END=
