##TITLE= copper in gd-2
##JCAMP-DX= 4.24
##DATA TYPE= UV/VIS SPECTRUM
##ORIGIN= 
##OWNER= U-3300 user
##DATE= 14:19:25, 11/28/2022
##SAMPLE DESCRIPTION= 
##SPECTROMETER/DATA SYSTEM= Hitachi Model U-3300形分光光度計;
ｼﾘｱﾙ No.: 1146-001;
ROM Ver.: 2520 10;
##INSTRUMENT PARAMETERS= ｽｷｬﾝｽﾋﾟｰﾄﾞ= 120 nm/min;
ｽﾘｯﾄ= 4 nm;
ﾎﾄﾏﾙ電圧= 自動制御;
光源切換= 340.00 nm;
ﾍﾞｰｽﾗｲﾝ設定= ﾕｰｻﾞ 1;
高分解能測定= Off;
##DELTAX= -1.00
##PATH_LENGTH= 10.0mm
##XLABEL= nm
##YLABEL= %T
##XUNITS= NANOMETERS
##YUNITS= % TRANSMITTANCE
##XFACTOR= 1.0
##YFACTOR= 1.0
##FIRSTX= 800.00
##LASTX= 648.00
##NPOINTS= 153
##XYDATA= (X++(Y..Y))
800.00 99.6
799.00 99.6
798.00 99.6
797.00 99.6
796.00 99.6
795.00 99.6
794.00 99.6
793.00 99.6
792.00 99.6
791.00 99.6
790.00 99.6
789.00 99.6
788.00 99.5
787.00 99.6
786.00 99.6
785.00 99.6
784.00 99.6
783.00 99.6
782.00 99.6
781.00 99.6
780.00 99.6
779.00 99.6
778.00 99.6
777.00 99.6
776.00 99.6
775.00 99.6
774.00 99.6
773.00 99.6
772.00 99.6
771.00 99.6
770.00 99.6
769.00 99.6
768.00 99.6
767.00 99.6
766.00 99.6
765.00 99.6
764.00 99.6
763.00 99.6
762.00 99.6
761.00 99.6
760.00 99.6
759.00 99.6
758.00 99.6
757.00 99.6
756.00 99.6
755.00 99.6
754.00 99.6
753.00 99.6
752.00 99.6
751.00 99.6
750.00 99.6
749.00 99.6
748.00 99.6
747.00 99.6
746.00 99.6
745.00 99.6
744.00 99.6
743.00 99.6
742.00 99.6
741.00 99.6
740.00 99.6
739.00 99.6
738.00 99.6
737.00 99.6
736.00 99.6
735.00 99.6
734.00 99.6
733.00 99.6
732.00 99.6
731.00 99.6
730.00 99.6
729.00 99.6
728.00 99.6
727.00 99.6
726.00 99.6
725.00 99.6
724.00 99.6
723.00 99.6
722.00 99.6
721.00 99.6
720.00 99.6
719.00 99.6
718.00 99.6
717.00 99.6
716.00 99.6
715.00 99.6
714.00 99.6
713.00 99.6
712.00 99.6
711.00 99.6
710.00 99.6
709.00 99.6
708.00 99.6
707.00 99.6
706.00 99.6
705.00 99.6
704.00 99.6
703.00 99.6
702.00 99.6
701.00 99.6
700.00 99.6
699.00 99.6
698.00 99.6
697.00 99.6
696.00 99.6
695.00 99.6
694.00 99.6
693.00 99.6
692.00 99.6
691.00 99.6
690.00 99.6
689.00 99.6
688.00 99.7
687.00 99.7
686.00 99.7
685.00 99.6
684.00 99.6
683.00 99.7
682.00 99.7
681.00 99.6
680.00 99.7
679.00 99.7
678.00 99.7
677.00 99.7
676.00 99.7
675.00 99.7
674.00 99.7
673.00 99.7
672.00 99.7
671.00 99.7
670.00 99.7
669.00 99.7
668.00 99.7
667.00 99.7
666.00 99.7
665.00 99.7
664.00 99.7
663.00 99.7
662.00 99.7
661.00 99.7
660.00 99.7
659.00 99.7
658.00 99.7
657.00 99.7
656.00 99.7
655.00 99.7
654.00 99.7
653.00 99.7
652.00 99.7
651.00 99.7
650.00 99.7
649.00 99.7
648.00 99.7
##END=
