##TITLE= 1
##JCAMP-DX= 4.24
##DATA TYPE= UV/VIS SPECTRUM
##ORIGIN= 
##OWNER= U-3300 user
##DATE= 16:10:40, 12/02/2022
##SAMPLE DESCRIPTION= 
##SPECTROMETER/DATA SYSTEM= Hitachi Model U-3300形分光光度計;
ｼﾘｱﾙ No.: 1146-001;
ROM Ver.: 2520 10;
##INSTRUMENT PARAMETERS= ｽｷｬﾝｽﾋﾟｰﾄﾞ= 120 nm/min;
ｽﾘｯﾄ= 4 nm;
ﾎﾄﾏﾙ電圧= 自動制御;
光源切換= 340.00 nm;
ﾍﾞｰｽﾗｲﾝ設定= ﾕｰｻﾞ 1;
高分解能測定= Off;
##DELTAX= -1.00
##PATH_LENGTH= 10.0mm
##XLABEL= nm
##YLABEL= %T
##XUNITS= NANOMETERS
##YUNITS= % TRANSMITTANCE
##XFACTOR= 1.0
##YFACTOR= 1.0
##FIRSTX= 600.00
##LASTX= 200.00
##NPOINTS= 401
##XYDATA= (X++(Y..Y))
600.00 100.1
599.00 100.1
598.00 100.1
597.00 100.1
596.00 100.1
595.00 100.1
594.00 100.1
593.00 100.1
592.00 100.1
591.00 100.1
590.00 100.1
589.00 100.1
588.00 100.1
587.00 100.1
586.00 100.2
585.00 100.2
584.00 100.2
583.00 100.2
582.00 100.2
581.00 100.2
580.00 100.1
579.00 100.1
578.00 100.1
577.00 100.1
576.00 100.2
575.00 100.2
574.00 100.2
573.00 100.2
572.00 100.2
571.00 100.2
570.00 100.2
569.00 100.2
568.00 100.2
567.00 100.2
566.00 100.2
565.00 100.2
564.00 100.2
563.00 100.2
562.00 100.2
561.00 100.2
560.00 100.2
559.00 100.2
558.00 100.2
557.00 100.2
556.00 100.2
555.00 100.2
554.00 100.2
553.00 100.2
552.00 100.2
551.00 100.2
550.00 100.2
549.00 100.2
548.00 100.2
547.00 100.2
546.00 100.2
545.00 100.2
544.00 100.2
543.00 100.2
542.00 100.2
541.00 100.2
540.00 100.2
539.00 100.2
538.00 100.2
537.00 100.2
536.00 100.2
535.00 100.2
534.00 100.2
533.00 100.2
532.00 100.2
531.00 100.2
530.00 100.2
529.00 100.2
528.00 100.2
527.00 100.2
526.00 100.2
525.00 100.2
524.00 100.2
523.00 100.2
522.00 100.2
521.00 100.2
520.00 100.2
519.00 100.2
518.00 100.2
517.00 100.2
516.00 100.2
515.00 100.2
514.00 100.2
513.00 100.2
512.00 100.2
511.00 100.2
510.00 100.2
509.00 100.2
508.00 100.2
507.00 100.2
506.00 100.2
505.00 100.2
504.00 100.2
503.00 100.2
502.00 100.2
501.00 100.2
500.00 100.2
499.00 100.2
498.00 100.2
497.00 100.2
496.00 100.2
495.00 100.2
494.00 100.2
493.00 100.2
492.00 100.2
491.00 100.2
490.00 100.2
489.00 100.2
488.00 100.2
487.00 100.2
486.00 100.2
485.00 100.2
484.00 100.2
483.00 100.2
482.00 100.2
481.00 100.2
480.00 100.2
479.00 100.2
478.00 100.2
477.00 100.2
476.00 100.2
475.00 100.2
474.00 100.2
473.00 100.2
472.00 100.2
471.00 100.2
470.00 100.2
469.00 100.2
468.00 100.2
467.00 100.2
466.00 100.2
465.00 100.2
464.00 100.2
463.00 100.2
462.00 100.2
461.00 100.2
460.00 100.2
459.00 100.2
458.00 100.2
457.00 100.2
456.00 100.2
455.00 100.2
454.00 100.2
453.00 100.2
452.00 100.2
451.00 100.2
450.00 100.2
449.00 100.2
448.00 100.2
447.00 100.2
446.00 100.2
445.00 100.2
444.00 100.2
443.00 100.2
442.00 100.2
441.00 100.2
440.00 100.2
439.00 100.2
438.00 100.2
437.00 100.2
436.00 100.2
435.00 100.2
434.00 100.2
433.00 100.2
432.00 100.2
431.00 100.2
430.00 100.2
429.00 100.2
428.00 100.2
427.00 100.2
426.00 100.2
425.00 100.2
424.00 100.2
423.00 100.2
422.00 100.2
421.00 100.2
420.00 100.2
419.00 100.2
418.00 100.2
417.00 100.2
416.00 100.2
415.00 100.2
414.00 100.2
413.00 100.2
412.00 100.2
411.00 100.2
410.00 100.2
409.00 100.2
408.00 100.2
407.00 100.2
406.00 100.2
405.00 100.2
404.00 100.2
403.00 100.2
402.00 100.2
401.00 100.2
400.00 100.2
399.00 100.2
398.00 100.2
397.00 100.2
396.00 100.2
395.00 100.2
394.00 100.2
393.00 100.2
392.00 100.2
391.00 100.2
390.00 100.2
389.00 100.2
388.00 100.1
387.00 100.1
386.00 100.1
385.00 100.1
384.00 100.1
383.00 100.1
382.00 100.1
381.00 100.1
380.00 100.1
379.00 100.1
378.00 100.1
377.00 100.1
376.00 100.1
375.00 100.1
374.00 100.1
373.00 100.1
372.00 100.1
371.00 100.1
370.00 100.1
369.00 100.1
368.00 100.1
367.00 100.1
366.00 100.1
365.00 100.1
364.00 100.1
363.00 100.1
362.00 100.1
361.00 100.0
360.00 100.0
359.00 100.0
358.00 100.0
357.00 100.0
356.00 100.0
355.00 100.0
354.00 100.0
353.00 100.0
352.00 100.0
351.00 100.0
350.00 100.0
349.00 100.0
348.00 100.0
347.00 100.0
346.00 100.0
345.00 99.9
344.00 99.9
343.00 99.9
342.00 99.9
341.00 99.9
340.00 99.9
339.00 99.9
338.00 99.9
337.00 99.9
336.00 99.9
335.00 99.9
334.00 99.8
333.00 99.8
332.00 99.8
331.00 99.8
330.00 99.7
329.00 99.7
328.00 99.7
327.00 99.7
326.00 99.6
325.00 99.6
324.00 99.6
323.00 99.5
322.00 99.5
321.00 99.5
320.00 99.4
319.00 99.4
318.00 99.3
317.00 99.3
316.00 99.2
315.00 99.2
314.00 99.1
313.00 99.1
312.00 99.0
311.00 99.0
310.00 98.9
309.00 98.8
308.00 98.8
307.00 98.7
306.00 98.7
305.00 98.6
304.00 98.5
303.00 98.4
302.00 98.4
301.00 98.3
300.00 98.2
299.00 98.1
298.00 98.0
297.00 98.0
296.00 97.9
295.00 97.8
294.00 97.8
293.00 97.7
292.00 97.6
291.00 97.6
290.00 97.5
289.00 97.4
288.00 97.4
287.00 97.3
286.00 97.2
285.00 97.2
284.00 97.2
283.00 97.1
282.00 97.1
281.00 97.0
280.00 97.0
279.00 97.0
278.00 96.9
277.00 96.9
276.00 96.9
275.00 96.8
274.00 96.8
273.00 96.8
272.00 96.8
271.00 96.8
270.00 96.8
269.00 96.8
268.00 96.8
267.00 96.8
266.00 96.8
265.00 96.8
264.00 96.8
263.00 96.8
262.00 96.8
261.00 96.8
260.00 96.7
259.00 96.7
258.00 96.7
257.00 96.7
256.00 96.7
255.00 96.7
254.00 96.7
253.00 96.7
252.00 96.7
251.00 96.7
250.00 96.6
249.00 96.6
248.00 96.5
247.00 96.5
246.00 96.4
245.00 96.4
244.00 96.4
243.00 96.3
242.00 96.3
241.00 96.2
240.00 96.1
239.00 96.0
238.00 95.8
237.00 95.7
236.00 95.5
235.00 95.3
234.00 95.1
233.00 94.9
232.00 94.7
231.00 94.4
230.00 94.1
229.00 93.8
228.00 93.4
227.00 93.0
226.00 92.6
225.00 92.2
224.00 91.7
223.00 91.3
222.00 90.8
221.00 90.3
220.00 89.8
219.00 89.2
218.00 88.7
217.00 88.1
216.00 87.5
215.00 86.9
214.00 86.4
213.00 85.8
212.00 85.3
211.00 84.9
210.00 84.5
209.00 84.1
208.00 83.7
207.00 83.4
206.00 83.1
205.00 82.8
204.00 82.5
203.00 82.2
202.00 82.0
201.00 81.7
200.00 81.6
##END=
