##TITLE= 1-2
##JCAMP-DX= 4.24
##DATA TYPE= UV/VIS SPECTRUM
##ORIGIN= 
##OWNER= U-3300 user
##DATE= 16:08:07, 12/02/2022
##SAMPLE DESCRIPTION= 
##SPECTROMETER/DATA SYSTEM= Hitachi Model U-3300形分光光度計;
ｼﾘｱﾙ No.: 1146-001;
ROM Ver.: 2520 10;
##INSTRUMENT PARAMETERS= ｽｷｬﾝｽﾋﾟｰﾄﾞ= 120 nm/min;
ｽﾘｯﾄ= 4 nm;
ﾎﾄﾏﾙ電圧= 自動制御;
光源切換= 340.00 nm;
ﾍﾞｰｽﾗｲﾝ設定= ﾕｰｻﾞ 1;
高分解能測定= Off;
##DELTAX= -1.00
##PATH_LENGTH= 10.0mm
##XLABEL= nm
##YLABEL= %T
##XUNITS= NANOMETERS
##YUNITS= % TRANSMITTANCE
##XFACTOR= 1.0
##YFACTOR= 1.0
##FIRSTX= 600.00
##LASTX= 512.00
##NPOINTS= 89
##XYDATA= (X++(Y..Y))
600.00 100.1
599.00 100.1
598.00 100.1
597.00 100.1
596.00 100.1
595.00 100.1
594.00 100.1
593.00 100.0
592.00 100.0
591.00 100.0
590.00 100.1
589.00 100.1
588.00 100.1
587.00 100.1
586.00 100.1
585.00 100.1
584.00 100.1
583.00 100.1
582.00 100.1
581.00 100.1
580.00 100.1
579.00 100.1
578.00 100.0
577.00 100.1
576.00 100.1
575.00 100.1
574.00 100.1
573.00 100.1
572.00 100.1
571.00 100.1
570.00 100.1
569.00 100.1
568.00 100.1
567.00 100.1
566.00 100.1
565.00 100.1
564.00 100.1
563.00 100.1
562.00 100.1
561.00 100.1
560.00 100.1
559.00 100.1
558.00 100.1
557.00 100.1
556.00 100.1
555.00 100.1
554.00 100.1
553.00 100.1
552.00 100.1
551.00 100.1
550.00 100.0
549.00 100.0
548.00 100.0
547.00 100.0
546.00 100.0
545.00 100.1
544.00 100.1
543.00 100.1
542.00 100.0
541.00 100.0
540.00 100.0
539.00 100.0
538.00 100.1
537.00 100.1
536.00 100.1
535.00 100.1
534.00 100.0
533.00 100.0
532.00 100.0
531.00 100.0
530.00 100.0
529.00 100.0
528.00 100.0
527.00 100.0
526.00 100.0
525.00 100.0
524.00 100.0
523.00 100.0
522.00 100.0
521.00 100.0
520.00 100.0
519.00 100.0
518.00 100.0
517.00 100.0
516.00 100.0
515.00 100.0
514.00 100.0
513.00 100.0
512.00 100.0
##END=
