##TITLE= 1-1
##JCAMP-DX= 4.24
##DATA TYPE= UV/VIS SPECTRUM
##ORIGIN= 
##OWNER= U-3300 user
##DATE= 16:04:17, 12/02/2022
##SAMPLE DESCRIPTION= 
##SPECTROMETER/DATA SYSTEM= Hitachi Model U-3300形分光光度計;
ｼﾘｱﾙ No.: 1146-001;
ROM Ver.: 2520 10;
##INSTRUMENT PARAMETERS= ｽｷｬﾝｽﾋﾟｰﾄﾞ= 120 nm/min;
ｽﾘｯﾄ= 4 nm;
ﾎﾄﾏﾙ電圧= 自動制御;
光源切換= 340.00 nm;
ﾍﾞｰｽﾗｲﾝ設定= ﾕｰｻﾞ 1;
高分解能測定= Off;
##DELTAX= -1.00
##PATH_LENGTH= 10.0mm
##XLABEL= nm
##YLABEL= %T
##XUNITS= NANOMETERS
##YUNITS= % TRANSMITTANCE
##XFACTOR= 1.0
##YFACTOR= 1.0
##FIRSTX= 600.00
##LASTX= 200.00
##NPOINTS= 401
##XYDATA= (X++(Y..Y))
600.00 100.0
599.00 100.0
598.00 100.0
597.00 100.0
596.00 100.0
595.00 100.0
594.00 100.0
593.00 100.0
592.00 100.0
591.00 100.0
590.00 100.0
589.00 100.0
588.00 100.0
587.00 100.0
586.00 100.0
585.00 100.0
584.00 100.0
583.00 100.0
582.00 100.0
581.00 100.0
580.00 100.0
579.00 100.0
578.00 100.0
577.00 100.0
576.00 100.0
575.00 100.0
574.00 100.0
573.00 100.0
572.00 100.0
571.00 100.0
570.00 100.0
569.00 100.0
568.00 100.0
567.00 100.0
566.00 100.0
565.00 100.0
564.00 100.0
563.00 100.0
562.00 100.0
561.00 100.0
560.00 100.0
559.00 100.0
558.00 100.0
557.00 100.0
556.00 100.0
555.00 100.0
554.00 100.0
553.00 99.9
552.00 100.0
551.00 99.9
550.00 99.9
549.00 99.9
548.00 99.9
547.00 99.9
546.00 100.0
545.00 100.0
544.00 100.0
543.00 100.0
542.00 100.0
541.00 100.0
540.00 100.0
539.00 100.0
538.00 100.0
537.00 100.0
536.00 100.0
535.00 100.0
534.00 100.0
533.00 100.0
532.00 100.0
531.00 100.0
530.00 100.0
529.00 100.0
528.00 100.0
527.00 100.0
526.00 100.0
525.00 100.0
524.00 100.0
523.00 100.0
522.00 100.0
521.00 100.0
520.00 100.0
519.00 100.0
518.00 100.0
517.00 100.0
516.00 100.0
515.00 100.0
514.00 100.0
513.00 100.0
512.00 100.0
511.00 100.0
510.00 100.0
509.00 100.0
508.00 100.0
507.00 100.0
506.00 100.0
505.00 100.0
504.00 100.0
503.00 100.0
502.00 100.0
501.00 100.0
500.00 100.1
499.00 100.1
498.00 100.1
497.00 100.1
496.00 100.1
495.00 100.1
494.00 100.1
493.00 100.1
492.00 100.1
491.00 100.1
490.00 100.1
489.00 100.1
488.00 100.1
487.00 100.1
486.00 100.1
485.00 100.1
484.00 100.1
483.00 100.1
482.00 100.1
481.00 100.1
480.00 100.1
479.00 100.1
478.00 100.1
477.00 100.1
476.00 100.1
475.00 100.1
474.00 100.1
473.00 100.1
472.00 100.1
471.00 100.1
470.00 100.1
469.00 100.1
468.00 100.1
467.00 100.1
466.00 100.1
465.00 100.1
464.00 100.1
463.00 100.1
462.00 100.1
461.00 100.1
460.00 100.1
459.00 100.1
458.00 100.1
457.00 100.1
456.00 100.0
455.00 100.0
454.00 100.0
453.00 100.1
452.00 100.1
451.00 100.1
450.00 100.1
449.00 100.1
448.00 100.1
447.00 100.1
446.00 100.1
445.00 100.1
444.00 100.1
443.00 100.1
442.00 100.0
441.00 100.0
440.00 100.0
439.00 100.0
438.00 100.1
437.00 100.1
436.00 100.1
435.00 100.1
434.00 100.1
433.00 100.1
432.00 100.0
431.00 100.0
430.00 100.0
429.00 100.0
428.00 100.0
427.00 100.0
426.00 100.0
425.00 100.0
424.00 100.0
423.00 100.0
422.00 100.0
421.00 100.0
420.00 100.0
419.00 100.0
418.00 100.0
417.00 100.0
416.00 100.0
415.00 100.0
414.00 100.0
413.00 100.0
412.00 99.9
411.00 99.9
410.00 99.9
409.00 99.9
408.00 99.9
407.00 99.9
406.00 99.9
405.00 99.9
404.00 99.9
403.00 99.9
402.00 99.9
401.00 99.9
400.00 99.9
399.00 99.8
398.00 99.8
397.00 99.8
396.00 99.8
395.00 99.7
394.00 99.7
393.00 99.6
392.00 99.6
391.00 99.5
390.00 99.5
389.00 99.4
388.00 99.3
387.00 99.3
386.00 99.2
385.00 99.2
384.00 99.1
383.00 99.1
382.00 99.0
381.00 98.9
380.00 98.9
379.00 98.8
378.00 98.8
377.00 98.7
376.00 98.7
375.00 98.6
374.00 98.6
373.00 98.5
372.00 98.4
371.00 98.4
370.00 98.4
369.00 98.3
368.00 98.3
367.00 98.2
366.00 98.2
365.00 98.2
364.00 98.1
363.00 98.1
362.00 98.0
361.00 98.0
360.00 98.0
359.00 98.0
358.00 98.0
357.00 98.0
356.00 97.9
355.00 97.9
354.00 98.0
353.00 98.0
352.00 98.0
351.00 98.0
350.00 98.0
349.00 98.1
348.00 98.1
347.00 98.1
346.00 98.1
345.00 98.1
344.00 98.2
343.00 98.2
342.00 98.2
341.00 98.3
340.00 98.4
339.00 98.4
338.00 98.5
337.00 98.5
336.00 98.6
335.00 98.6
334.00 98.7
333.00 98.7
332.00 98.8
331.00 98.8
330.00 98.9
329.00 98.9
328.00 99.0
327.00 99.0
326.00 99.0
325.00 99.1
324.00 99.1
323.00 99.2
322.00 99.2
321.00 99.3
320.00 99.3
319.00 99.3
318.00 99.3
317.00 99.4
316.00 99.4
315.00 99.4
314.00 99.4
313.00 99.4
312.00 99.4
311.00 99.4
310.00 99.4
309.00 99.5
308.00 99.5
307.00 99.5
306.00 99.5
305.00 99.5
304.00 99.5
303.00 99.5
302.00 99.5
301.00 99.5
300.00 99.5
299.00 99.5
298.00 99.5
297.00 99.5
296.00 99.4
295.00 99.4
294.00 99.4
293.00 99.4
292.00 99.3
291.00 99.3
290.00 99.3
289.00 99.2
288.00 99.1
287.00 99.1
286.00 99.0
285.00 98.9
284.00 98.8
283.00 98.7
282.00 98.7
281.00 98.6
280.00 98.5
279.00 98.2
278.00 97.7
277.00 97.0
276.00 96.3
275.00 95.8
274.00 95.5
273.00 95.6
272.00 96.0
271.00 96.5
270.00 97.0
269.00 97.4
268.00 97.5
267.00 97.5
266.00 97.3
265.00 97.1
264.00 96.9
263.00 96.8
262.00 96.6
261.00 96.5
260.00 96.3
259.00 96.1
258.00 95.9
257.00 95.7
256.00 95.5
255.00 95.4
254.00 95.2
253.00 95.0
252.00 94.9
251.00 94.8
250.00 94.7
249.00 94.6
248.00 94.5
247.00 94.4
246.00 94.3
245.00 94.2
244.00 94.2
243.00 94.2
242.00 94.1
241.00 94.1
240.00 94.0
239.00 93.9
238.00 93.7
237.00 93.6
236.00 93.5
235.00 93.4
234.00 93.3
233.00 93.2
232.00 93.1
231.00 93.0
230.00 93.0
229.00 92.9
228.00 92.8
227.00 92.7
226.00 92.6
225.00 92.5
224.00 92.4
223.00 92.3
222.00 92.2
221.00 92.0
220.00 91.6
219.00 91.2
218.00 90.8
217.00 90.3
216.00 89.7
215.00 89.1
214.00 88.4
213.00 87.7
212.00 87.0
211.00 86.1
210.00 85.2
209.00 84.2
208.00 83.1
207.00 81.8
206.00 80.6
205.00 79.0
204.00 77.1
203.00 74.9
202.00 72.7
201.00 70.7
200.00 69.2
##END=
