##TITLE= Gd02
##JCAMP-DX= 4.24
##DATA TYPE= UV/VIS SPECTRUM
##ORIGIN= 
##OWNER= U-3300 user
##DATE= 18:51:05, 12/12/2022
##SAMPLE DESCRIPTION= 
##SPECTROMETER/DATA SYSTEM= Hitachi Model U-3300形分光光度計;
ｼﾘｱﾙ No.: 1146-001;
ROM Ver.: 2520 10;
##INSTRUMENT PARAMETERS= ｽｷｬﾝｽﾋﾟｰﾄﾞ= 120 nm/min;
ｽﾘｯﾄ= 4 nm;
ﾎﾄﾏﾙ電圧= 自動制御;
光源切換= 340.00 nm;
ﾍﾞｰｽﾗｲﾝ設定= ﾕｰｻﾞ 1;
高分解能測定= Off;
##DELTAX= -1.00
##PATH_LENGTH= 10.0mm
##XLABEL= nm
##YLABEL= %T
##XUNITS= NANOMETERS
##YUNITS= % TRANSMITTANCE
##XFACTOR= 1.0
##YFACTOR= 1.0
##FIRSTX= 600.00
##LASTX= 200.00
##NPOINTS= 401
##XYDATA= (X++(Y..Y))
600.00 99.5
599.00 99.5
598.00 99.5
597.00 99.5
596.00 99.5
595.00 99.5
594.00 99.5
593.00 99.5
592.00 99.5
591.00 99.5
590.00 99.5
589.00 99.5
588.00 99.5
587.00 99.5
586.00 99.5
585.00 99.5
584.00 99.5
583.00 99.5
582.00 99.5
581.00 99.5
580.00 99.5
579.00 99.5
578.00 99.5
577.00 99.5
576.00 99.5
575.00 99.5
574.00 99.5
573.00 99.5
572.00 99.5
571.00 99.5
570.00 99.5
569.00 99.5
568.00 99.6
567.00 99.6
566.00 99.5
565.00 99.5
564.00 99.5
563.00 99.5
562.00 99.5
561.00 99.5
560.00 99.5
559.00 99.5
558.00 99.5
557.00 99.5
556.00 99.5
555.00 99.5
554.00 99.5
553.00 99.5
552.00 99.5
551.00 99.5
550.00 99.5
549.00 99.5
548.00 99.5
547.00 99.5
546.00 99.5
545.00 99.5
544.00 99.5
543.00 99.5
542.00 99.5
541.00 99.5
540.00 99.5
539.00 99.5
538.00 99.5
537.00 99.5
536.00 99.5
535.00 99.5
534.00 99.5
533.00 99.5
532.00 99.5
531.00 99.5
530.00 99.5
529.00 99.5
528.00 99.5
527.00 99.5
526.00 99.5
525.00 99.5
524.00 99.5
523.00 99.5
522.00 99.5
521.00 99.5
520.00 99.5
519.00 99.5
518.00 99.5
517.00 99.5
516.00 99.5
515.00 99.5
514.00 99.5
513.00 99.5
512.00 99.5
511.00 99.5
510.00 99.5
509.00 99.5
508.00 99.5
507.00 99.5
506.00 99.5
505.00 99.5
504.00 99.5
503.00 99.5
502.00 99.5
501.00 99.5
500.00 99.5
499.00 99.5
498.00 99.5
497.00 99.5
496.00 99.5
495.00 99.5
494.00 99.5
493.00 99.5
492.00 99.5
491.00 99.5
490.00 99.5
489.00 99.5
488.00 99.5
487.00 99.5
486.00 99.5
485.00 99.5
484.00 99.5
483.00 99.5
482.00 99.5
481.00 99.5
480.00 99.5
479.00 99.5
478.00 99.5
477.00 99.5
476.00 99.5
475.00 99.5
474.00 99.5
473.00 99.5
472.00 99.5
471.00 99.5
470.00 99.5
469.00 99.5
468.00 99.5
467.00 99.5
466.00 99.5
465.00 99.5
464.00 99.5
463.00 99.5
462.00 99.5
461.00 99.5
460.00 99.5
459.00 99.5
458.00 99.5
457.00 99.5
456.00 99.5
455.00 99.5
454.00 99.5
453.00 99.5
452.00 99.5
451.00 99.5
450.00 99.5
449.00 99.5
448.00 99.5
447.00 99.5
446.00 99.5
445.00 99.5
444.00 99.5
443.00 99.5
442.00 99.5
441.00 99.5
440.00 99.5
439.00 99.5
438.00 99.5
437.00 99.5
436.00 99.5
435.00 99.5
434.00 99.5
433.00 99.5
432.00 99.5
431.00 99.5
430.00 99.5
429.00 99.5
428.00 99.5
427.00 99.5
426.00 99.5
425.00 99.5
424.00 99.5
423.00 99.5
422.00 99.5
421.00 99.5
420.00 99.5
419.00 99.5
418.00 99.5
417.00 99.5
416.00 99.5
415.00 99.5
414.00 99.5
413.00 99.5
412.00 99.5
411.00 99.5
410.00 99.5
409.00 99.5
408.00 99.5
407.00 99.5
406.00 99.5
405.00 99.5
404.00 99.5
403.00 99.5
402.00 99.5
401.00 99.5
400.00 99.5
399.00 99.5
398.00 99.4
397.00 99.4
396.00 99.4
395.00 99.4
394.00 99.4
393.00 99.5
392.00 99.5
391.00 99.4
390.00 99.4
389.00 99.4
388.00 99.4
387.00 99.3
386.00 99.3
385.00 99.3
384.00 99.4
383.00 99.4
382.00 99.4
381.00 99.4
380.00 99.4
379.00 99.4
378.00 99.4
377.00 99.4
376.00 99.4
375.00 99.4
374.00 99.4
373.00 99.4
372.00 99.4
371.00 99.4
370.00 99.4
369.00 99.4
368.00 99.4
367.00 99.4
366.00 99.4
365.00 99.4
364.00 99.4
363.00 99.4
362.00 99.4
361.00 99.4
360.00 99.4
359.00 99.4
358.00 99.4
357.00 99.4
356.00 99.4
355.00 99.4
354.00 99.4
353.00 99.4
352.00 99.4
351.00 99.4
350.00 99.4
349.00 99.4
348.00 99.4
347.00 99.4
346.00 99.4
345.00 99.4
344.00 99.3
343.00 99.3
342.00 99.3
341.00 99.3
340.00 99.3
339.00 99.4
338.00 99.4
337.00 99.4
336.00 99.4
335.00 99.4
334.00 99.4
333.00 99.4
332.00 99.4
331.00 99.3
330.00 99.3
329.00 99.3
328.00 99.3
327.00 99.3
326.00 99.3
325.00 99.3
324.00 99.3
323.00 99.3
322.00 99.3
321.00 99.3
320.00 99.3
319.00 99.3
318.00 99.3
317.00 99.3
316.00 99.2
315.00 99.2
314.00 99.2
313.00 99.2
312.00 99.2
311.00 99.1
310.00 99.1
309.00 99.2
308.00 99.2
307.00 99.2
306.00 99.2
305.00 99.2
304.00 99.2
303.00 99.2
302.00 99.2
301.00 99.2
300.00 99.2
299.00 99.2
298.00 99.2
297.00 99.2
296.00 99.2
295.00 99.2
294.00 99.2
293.00 99.2
292.00 99.2
291.00 99.2
290.00 99.2
289.00 99.2
288.00 99.2
287.00 99.2
286.00 99.2
285.00 99.2
284.00 99.2
283.00 99.2
282.00 99.2
281.00 99.2
280.00 99.1
279.00 98.9
278.00 98.5
277.00 97.9
276.00 97.3
275.00 96.8
274.00 96.6
273.00 96.8
272.00 97.2
271.00 97.8
270.00 98.5
269.00 99.0
268.00 99.2
267.00 99.3
266.00 99.2
265.00 99.2
264.00 99.2
263.00 99.2
262.00 99.2
261.00 99.2
260.00 99.2
259.00 99.2
258.00 99.2
257.00 99.2
256.00 99.2
255.00 99.2
254.00 99.2
253.00 99.2
252.00 99.2
251.00 99.2
250.00 99.2
249.00 99.2
248.00 99.2
247.00 99.2
246.00 99.2
245.00 99.2
244.00 99.2
243.00 99.3
242.00 99.3
241.00 99.3
240.00 99.3
239.00 99.3
238.00 99.3
237.00 99.3
236.00 99.2
235.00 99.2
234.00 99.2
233.00 99.2
232.00 99.2
231.00 99.2
230.00 99.2
229.00 99.2
228.00 99.2
227.00 99.2
226.00 99.2
225.00 99.2
224.00 99.2
223.00 99.2
222.00 99.3
221.00 99.3
220.00 99.3
219.00 99.3
218.00 99.3
217.00 99.3
216.00 99.3
215.00 99.4
214.00 99.4
213.00 99.4
212.00 99.3
211.00 99.3
210.00 99.3
209.00 99.3
208.00 99.2
207.00 99.1
206.00 98.9
205.00 98.5
204.00 97.7
203.00 96.7
202.00 95.6
201.00 94.4
200.00 93.5
##END=
